#Acq. time (s)=	10
#Accumulations=	1
#Range (cm-¹)=	1300...1700
#Windows=	2
#Autofocus=	Off
#AutoExposure=	Off
#Spike filter=	Single accum. (Size=3)
#Delay time (s)=	0.1
#Binning=	1
#Readout mode=	Signal
#DeNoise=	Standard
#ICS correction=	On
#Dark correction=	Off
#Inst. Process=	Off
#Instrument=	LabRAM HR Evol
#Detector=	Synapse
#Objective=	x20SLWD
#Grating=	1800 gr/mm
#ND Filter=	100%
#Laser (nm)=	633 
#Hole=	150.001
#Range=	Visible
#Collection=	Microscope
#StageXY=	Marzhauser
#StageZ=	Marzhauser
#X (µm)=	0
#Y (µm)=	0
#Z (µm)=	0
#Project=	20190124
#Sample=	1-2
#Site=	
#Title=	D_64
#Remark=	
#Date=	19.05.2019 00:18
#Acquired=	19.05.2019 00:18:35
#Edit:Spike=	19.05.2019 00:18:47
#Edit:Spike=	19.05.2019 00:18:48
#Edit:Spike=	19.05.2019 00:18:49
#Edit:Spike=	19.05.2019 00:18:50
#Edit:Spike=	19.05.2019 00:18:51
#Edit:Spike=	19.05.2019 00:18:51
1300.13	41.7128
1300.4	42.1479
1300.68	42.5786
1300.95	42.8761
1301.23	43.3131
1301.5	43.6674
1301.78	44.0791
1302.05	44.3959
1302.32	44.7807
1302.6	45.0707
1302.87	45.4256
1303.15	45.7031
1303.42	46.0216
1303.69	46.2847
1303.97	46.5587
1304.24	46.7908
1304.52	47.0239
1304.79	47.2393
1305.07	47.4235
1305.34	47.5676
1305.61	47.6096
1305.89	47.6773
1306.16	47.8137
1306.44	47.681
1306.71	47.5086
1306.98	47.3282
1307.26	47.1455
1307.53	46.8541
1307.8	46.5925
1308.08	46.3787
1308.35	46.1428
1308.63	45.9744
1308.9	46.1978
1309.17	46.4025
1309.45	46.7012
1309.72	47.0475
1310	47.4976
1310.27	47.9162
1310.54	48.3574
1310.82	49.0241
1311.09	49.369
1311.36	49.6916
1311.64	49.9939
1311.91	50.2592
1312.19	50.3477
1312.46	50.4844
1312.73	50.6114
1313.01	50.7156
1313.28	50.8703
1313.55	50.9891
1313.83	51.1515
1314.1	51.3083
1314.37	51.4999
1314.65	51.6933
1314.92	52.0232
1315.19	52.5138
1315.47	52.7702
1315.74	53.0591
1316.01	53.3008
1316.29	53.592
1316.56	53.8505
1316.83	54.1555
1317.11	54.4545
1317.38	54.7926
1317.65	55.1655
1317.93	55.5681
1318.2	56.0419
1318.47	56.5455
1318.75	57.1385
1319.02	57.8317
1319.29	59.0912
1319.57	60.1242
1319.84	61.2583
1320.11	62.3766
1320.39	63.2651
1320.66	63.9082
1320.93	64.1479
1321.2	64.3864
1321.48	64.924
1321.75	65.9169
1322.02	67.2138
1322.3	68.8871
1322.57	70.8067
1322.84	74.1658
1323.11	76.4219
1323.39	77.4751
1323.66	77.9942
1323.93	79.1148
1324.21	79.838
1324.48	81.4198
1324.75	83.7957
1325.02	89.2808
1325.3	92.7776
1325.57	96.8542
1325.84	100.429
1326.11	105.336
1326.39	110.579
1326.66	115.675
1326.93	122.137
1327.2	128.728
1327.48	136.941
1327.75	145.685
1328.02	156.111
1328.3	167.404
1328.57	180.373
1328.84	197.434
1329.11	215.09
1329.38	235.989
1329.66	266.004
1329.93	296.532
1330.2	340.694
1330.47	400.801
1330.75	470.49
1331.02	561.201
1331.29	668.62
1331.56	794.563
1331.84	957.849
1332.11	1159.85
1332.38	1332.1
1332.65	1493.45
1332.93	1634.32
1333.2	1781.79
1333.47	1796.18
1333.74	1780.88
1334.01	1756.83
1334.29	1684.89
1334.56	1608.38
1334.83	1544.17
1335.1	1479.56
1335.37	1411.12
1335.65	1303.56
1335.92	1245.04
1336.19	1189.83
1336.46	1141.78
1336.73	1092.42
1337.01	1046.83
1337.28	1009.47
1337.55	981.085
1337.82	934.026
1338.09	908.672
1338.36	875.821
1338.64	846.922
1338.91	819.245
1339.18	793.495
1339.45	769.289
1339.72	747.085
1340	725.368
1340.27	705.414
1340.54	685.994
1340.81	668.993
1341.08	651.575
1341.35	635.258
1341.63	617.979
1341.9	602.463
1342.17	586.49
1342.44	572.445
1342.71	559.091
1342.98	546.966
1343.26	537.997
1343.53	532.798
1343.8	527.735
1344.07	552.789
1344.34	520.39
1344.61	507.148
1344.88	481.482
1345.15	466.586
1345.43	456.218
1345.7	443.715
1345.97	436.165
1346.24	451.464
1346.51	422.158
1346.78	417.291
1347.05	405.54
1347.32	397.738
1347.6	408.232
1347.87	405.654
1348.14	386.596
1348.41	410.896
1348.68	398.611
1348.95	398.136
1349.22	391.773
1349.49	363.22
1349.77	354.78
1350.04	350.604
1350.31	349.263
1350.58	346.69
1350.85	340.85
1351.12	336.353
1351.39	331.216
1351.66	328.575
1351.93	325.776
1352.2	320.226
1352.48	316.051
1352.75	312.134
1353.02	307.977
1353.29	303.892
1353.56	299.948
1353.83	296.226
1354.1	292.798
1354.37	289.605
1354.64	286.525
1354.91	283.561
1355.18	280.674
1355.45	277.73
1355.72	274.783
1355.99	271.891
1356.26	269.195
1356.54	267.084
1356.81	264.959
1357.08	262.824
1357.35	260.403
1357.62	257.8
1357.89	255.134
1358.16	252.57
1358.43	250.468
1358.7	248.692
1358.97	247.257
1359.24	246.162
1359.51	245.297
1359.78	243.643
1360.05	241.235
1360.32	239.104
1360.59	236.941
1360.86	234.806
1361.13	232.597
1361.4	230.412
1361.67	228.006
1361.94	225.655
1362.21	223.323
1362.48	221.032
1362.75	218.873
1363.02	216.851
1363.29	214.969
1363.56	213.342
1363.83	211.972
1364.1	210.891
1364.37	210.251
1364.64	209.752
1364.91	209.339
1365.18	208.947
1365.45	208.36
1365.72	207.698
1365.99	206.964
1366.26	206.076
1366.53	205.112
1366.8	204.162
1367.07	202.844
1367.34	201.461
1367.61	200.027
1367.88	198.577
1368.15	196.966
1368.42	195.511
1368.69	194.085
1368.96	192.682
1369.23	191.302
1369.5	190.038
1369.77	188.793
1370.04	187.617
1370.31	186.488
1370.58	185.419
1370.85	184.401
1371.12	183.423
1371.39	182.43
1371.66	181.528
1371.93	180.597
1372.2	179.634
1372.47	178.702
1372.74	177.784
1373.01	176.875
1373.28	176.005
1373.55	175.081
1373.81	174.217
1374.08	173.413
1374.35	172.619
1374.62	171.879
1374.89	171.169
1375.16	170.506
1375.43	169.889
1375.7	169.309
1375.97	168.814
1376.24	168.395
1376.51	168.202
1376.78	167.974
1377.05	167.937
1377.31	168.011
1377.58	168.044
1377.85	168.126
1378.12	167.662
1378.39	167.053
1378.66	166.154
1378.93	165.235
1379.2	164.274
1379.47	163.116
1379.74	161.563
1380.01	159.875
1380.27	158.286
1380.54	157.036
1380.81	155.978
1381.08	155.084
1381.35	154.437
1381.62	153.899
1381.89	153.451
1382.16	152.969
1382.43	152.601
1382.69	152.247
1382.96	152.133
1383.23	152.045
1383.5	152.023
1383.77	151.988
1384.04	151.992
1384.31	151.958
1384.58	151.909
1384.84	151.816
1385.11	151.733
1385.38	151.544
1385.65	151.305
1385.92	150.968
1386.19	150.429
1386.46	149.941
1386.72	149.358
1386.99	148.756
1387.26	148.038
1387.53	147.272
1387.8	146.268
1388.07	145.28
1388.34	144.22
1388.6	143.166
1388.87	142.064
1389.14	141.029
1389.41	140.032
1389.68	139.082
1389.94	138.181
1390.21	137.946
1390.48	137.805
1390.75	137.659
1391.02	137.654
1391.29	137.712
1391.55	137.764
1391.82	137.887
1392.09	137.866
1392.36	137.967
1392.63	137.655
1392.9	137.115
1393.16	136.521
1393.43	135.878
1393.7	135.271
1393.97	134.58
1394.23	133.919
1394.5	133.298
1394.77	132.759
1395.04	132.228
1395.31	132.12
1395.58	131.936
1395.84	131.872
1396.11	131.779
1396.38	131.758
1396.65	131.727
1396.91	131.694
1397.18	131.72
1397.45	131.367
1397.72	130.951
1397.99	130.28
1398.25	129.701
1398.52	128.974
1398.79	128.393
1399.06	127.911
1399.32	127.363
1399.59	127.003
1399.86	126.844
1400.13	126.651
1400.39	126.475
1400.66	126.294
1400.93	126.127
1401.2	125.946
1401.46	125.787
1401.73	125.613
1402	125.464
1402.27	125.285
1402.53	125.132
1402.8	124.946
1403.07	124.803
1403.34	124.547
1403.6	124.287
1403.87	124.018
1404.14	123.742
1404.41	123.43
1404.67	123.074
1404.94	122.666
1405.21	122.306
1405.48	121.998
1405.74	121.717
1406.01	121.546
1406.28	121.426
1406.54	123.246
1406.81	123.291
1407.08	122.982
1407.34	120.744
1407.61	119.814
1407.88	119.152
1408.15	118.618
1408.41	118.122
1408.68	117.702
1408.95	117.31
1409.21	116.984
1409.48	116.691
1409.75	116.436
1410.01	116.238
1410.28	115.891
1410.55	115.594
1410.82	115.234
1411.08	114.928
1411.35	114.552
1411.62	114.185
1411.88	113.848
1412.15	113.409
1412.42	113.164
1412.68	112.959
1412.95	112.764
1413.22	112.608
1413.48	112.46
1413.75	112.363
1414.02	112.341
1414.28	112.207
1414.55	112.206
1414.82	112.108
1415.08	112.016
1415.35	111.923
1415.62	111.788
1415.88	111.711
1416.15	111.284
1416.42	111.082
1416.68	111.119
1416.95	111.176
1417.21	111.295
1417.48	111.393
1417.75	111.525
1418.01	111.973
1418.28	111.981
1418.55	111.948
1418.81	111.891
1419.08	111.794
1419.34	111.687
1419.61	111.371
1419.88	111.165
1420.14	110.929
1420.41	110.692
1420.68	110.439
1420.94	110.192
1421.21	109.934
1421.47	109.687
1421.74	109.423
1422.01	109.172
1422.27	108.904
1422.54	108.659
1422.81	108.39
1423.07	108.186
1423.34	107.957
1423.6	107.725
1423.87	107.489
1424.14	107.246
1424.4	107.017
1424.67	106.766
1424.93	106.516
1425.2	106.267
1425.46	106.019
1425.73	105.775
1426	105.53
1426.26	105.295
1426.53	105.055
1426.79	104.843
1427.06	104.622
1427.32	104.392
1427.59	104.151
1427.86	103.931
1428.12	103.697
1428.39	103.481
1428.65	103.255
1428.92	103.047
1429.18	102.834
1429.45	102.63
1429.72	102.423
1429.98	102.209
1430.25	102.012
1430.51	101.816
1430.78	101.638
1431.04	101.467
1431.31	101.31
1431.57	101.154
1431.84	101.027
1432.1	100.906
1432.37	100.819
1432.64	100.73
1432.9	100.642
1433.17	100.614
1433.43	100.445
1433.7	100.529
1433.96	100.588
1434.23	100.695
1434.49	100.951
1434.76	101.082
1435.02	101.198
1435.29	101.301
1435.55	101.386
1435.82	101.402
1436.08	101.395
1436.35	101.149
1436.61	100.117
1436.88	99.3112
1437.14	98.5646
1437.41	97.7576
1437.67	96.9672
1437.94	96.2132
1438.2	95.4094
1438.47	95.1617
1438.73	95.1337
1439	95.1641
1439.26	95.2917
1439.53	95.4561
1439.79	95.597
1440.06	95.8602
1440.32	95.8969
1440.59	95.8779
1440.85	95.6308
1441.12	95.4184
1441.38	95.1874
1441.65	94.9792
1441.91	94.7496
1442.18	94.5309
1442.44	94.3347
1442.71	94.13
1442.97	94.0201
1443.23	93.9177
1443.5	93.975
1443.76	94.136
1444.03	94.2841
1444.29	94.4486
1444.56	94.6204
1444.82	94.748
1445.09	94.8915
1445.35	95.0166
1445.61	95.0815
1445.88	95.1561
1446.14	95.1975
1446.41	94.9447
1446.67	94.9756
1446.94	94.61
1447.2	94.2098
1447.47	93.7807
1447.73	93.3229
1447.99	92.8771
1448.26	92.4233
1448.52	91.9423
1448.79	91.479
1449.05	91.044
1449.32	90.6104
1449.58	90.2199
1449.84	89.8568
1450.11	89.8507
1450.37	89.8798
1450.64	89.9025
1450.9	89.9132
1451.16	90.0063
1451.43	90.052
1451.69	90.1192
1451.96	90.1741
1452.22	90.226
1452.48	90.2779
1452.75	90.3191
1453.01	90.3579
1453.28	90.3938
1453.54	90.41
1453.8	90.4215
1454.07	90.4342
1454.33	90.3816
1454.6	90.1673
1454.86	89.9496
1455.12	89.7231
1455.39	89.5008
1455.65	89.2025
1455.91	88.8601
1456.18	88.5094
1456.44	88.1694
1456.71	87.7948
1456.97	87.4333
1457.23	87.0781
1457.5	86.7382
1457.76	86.3989
1458.02	86.0837
1458.29	85.7663
1458.55	85.4799
1458.81	85.1793
1459.08	84.91
1459.34	84.9416
1459.61	84.8287
1459.87	84.7495
1460.13	84.5608
1460.4	84.6432
1460.66	84.7699
1460.92	84.9185
1461.19	85.0726
1461.45	85.2478
1461.71	85.4135
1461.98	85.6206
1462.24	85.786
1462.5	85.9733
1462.77	86.1514
1463.03	86.2554
1463.29	86.3674
1463.55	86.4174
1463.82	86.2323
1464.08	86.1812
1464.35	86.0297
1464.61	85.8439
1464.87	85.6605
1465.13	85.3709
1465.4	85.1071
1465.66	84.8002
1465.92	84.3622
1466.19	83.8861
1466.45	83.4141
1466.71	82.9265
1466.98	82.437
1467.24	81.9548
1467.5	81.4592
1467.76	80.9784
1468.03	80.5077
1468.29	80.0019
1468.55	79.9637
1468.82	80.0219
1469.08	80.1599
1469.34	80.304
1469.6	80.4865
1469.87	80.6965
1470.13	80.8969
1470.39	81.0998
1470.66	81.3083
1470.92	81.4904
1471.18	81.6592
1471.44	81.837
1471.71	81.9932
1471.97	82.0283
1472.23	81.9224
1472.49	81.808
1472.76	81.6769
1473.02	81.5128
1473.28	81.3253
1473.54	81.1464
1473.81	80.9383
1474.07	80.7259
1474.33	80.5072
1474.59	80.2765
1474.86	80.0391
1475.12	79.6897
1475.38	79.5161
1475.64	79.3896
1475.91	79.2968
1476.17	79.1948
1476.43	79.2857
1476.69	79.4081
1476.96	79.483
1477.22	79.5514
1477.48	79.6009
1477.74	79.6516
1478	79.6945
1478.27	79.7164
1478.53	79.7364
1478.79	79.7368
1479.05	79.7183
1479.32	79.6912
1479.58	79.627
1479.84	79.5681
1480.1	79.256
1480.36	79.0729
1480.63	78.8795
1480.89	78.671
1481.15	78.4731
1481.41	78.2525
1481.67	77.9635
1481.93	77.8354
1482.2	77.445
1482.46	77.0082
1482.72	76.5497
1482.98	76.0699
1483.25	75.601
1483.51	75.1292
1483.77	74.6557
1484.03	74.1938
1484.29	73.7921
1484.55	73.3465
1484.82	72.8764
1485.08	72.7024
1485.34	72.6789
1485.6	73.1654
1485.86	73.4593
1486.12	73.7141
1486.39	73.9959
1486.65	74.2611
1486.91	74.5273
1487.17	74.7592
1487.43	74.9802
1487.69	75.0505
1487.96	75.1017
1488.22	75.2095
1488.48	75.328
1488.74	75.3085
1489	75.2576
1489.26	75.1964
1489.52	75.1125
1489.78	75.0128
1490.05	74.8996
1490.31	74.7663
1490.57	74.6281
1490.83	74.4331
1491.09	74.2638
1491.35	74.0904
1491.61	73.9013
1491.88	73.7275
1492.14	73.5486
1492.4	73.371
1492.66	73.2067
1492.92	73.0266
1493.18	72.8939
1493.44	72.7215
1493.7	72.5892
1493.96	72.4507
1494.23	72.32
1494.49	72.1994
1494.75	72.0691
1495.01	72.0177
1495.27	72.0919
1495.53	71.8994
1495.79	71.7376
1496.05	71.544
1496.31	71.3616
1496.57	71.1652
1496.84	70.9804
1497.1	70.7925
1497.36	70.608
1497.62	70.4393
1497.88	70.2681
1498.14	70.0998
1498.4	69.9078
1498.66	69.7083
1498.92	69.7238
1499.18	69.7373
1499.44	69.7875
1499.7	70.2022
1499.97	70.392
1500.23	70.589
1500.49	70.7672
1500.75	70.9347
1501.01	71.0753
1501.27	71.1248
1501.53	71.299
1501.79	71.2007
1502.05	71.1167
1502.31	70.6028
1502.57	70.2609
1502.83	69.8825
1503.09	69.5016
1503.35	69.0233
1503.61	68.7797
1503.87	68.5677
1504.13	68.4146
1504.39	68.2632
1504.65	68.3648
1504.91	68.3824
1505.18	68.4429
1505.44	68.5427
1505.7	68.5427
1505.96	68.7388
1506.22	68.643
1506.48	68.5392
1506.74	68.4177
1507	68.0982
1507.26	67.8162
1507.52	67.4286
1507.78	67.1599
1508.04	66.8979
1508.3	66.6331
1508.56	66.4036
1508.82	66.1651
1509.08	65.9548
1509.34	65.7542
1509.6	65.5957
1509.86	65.4635
1510.12	65.4467
1510.38	65.3997
1510.64	65.3355
1510.9	65.2562
1511.16	65.2201
1511.42	65.1844
1511.68	65.176
1511.94	65.1754
1512.2	65.1857
1512.46	65.2204
1512.72	65.256
1512.98	65.3012
1513.24	65.3319
1513.5	65.4033
1513.76	65.4764
1514.02	65.5413
1514.27	65.6111
1514.53	65.6676
1514.79	65.731
1515.05	65.7759
1515.31	65.8324
1515.57	65.8577
1515.83	65.9086
1516.09	66.0171
1516.35	65.9498
1516.61	65.8673
1516.87	65.7721
1517.13	65.5857
1517.39	65.1195
1517.65	64.5504
1517.91	64.3607
1518.17	64.162
1518.43	63.9747
1518.69	63.8006
1518.95	63.6092
1519.21	63.465
1519.46	63.4149
1519.72	63.4043
1519.98	63.2658
1520.24	63.1084
1520.5	62.941
1520.76	62.7829
1521.02	62.5866
1521.28	62.4266
1521.54	62.0869
1521.8	61.8976
1522.06	61.6929
1522.32	61.5123
1522.58	61.3418
1522.83	61.1749
1523.09	61.0291
1523.35	60.8775
1523.61	60.7552
1523.87	60.6188
1524.13	60.514
1524.39	60.3917
1524.65	60.2962
1524.91	60.1992
1525.17	60.1798
1525.42	60.0746
1525.68	59.9728
1525.94	59.9051
1526.2	59.8096
1526.46	59.7148
1526.72	59.628
1526.98	59.5375
1527.24	59.4685
1527.5	59.38
1527.75	59.3356
1528.01	59.2169
1528.27	59.0698
1528.53	59.1544
1528.79	59.2526
1529.05	59.3636
1529.31	59.4896
1529.56	59.8854
1529.82	60.1295
1530.08	60.3818
1530.34	60.7276
1530.6	60.8636
1530.86	60.9495
1531.12	60.9958
1531.37	61.0482
1531.63	61.0544
1531.89	60.7755
1532.15	60.6981
1532.41	60.5987
1532.67	60.5147
1532.92	60.4121
1533.18	60.3826
1533.44	60.2639
1533.7	60.18
1533.96	60.0616
1534.22	59.9717
1534.47	59.8563
1534.73	59.7625
1534.99	59.6533
1535.25	59.5872
1535.51	59.5035
1535.77	59.429
1536.02	59.3653
1536.28	59.316
1536.54	59.2618
1536.8	59.2301
1537.06	59.1932
1537.31	59.1792
1537.57	59.1617
1537.83	59.1561
1538.09	59.1611
1538.35	59.1624
1538.6	59.1954
1538.86	59.1783
1539.12	59.1564
1539.38	59.2853
1539.64	59.444
1539.89	59.6182
1540.15	59.8158
1540.41	60.0191
1540.67	60.2237
1540.93	60.5505
1541.18	60.7752
1541.44	61.0303
1541.7	61.3438
1541.96	61.3334
1542.21	61.2975
1542.47	61.2469
1542.73	60.6079
1542.99	60.3404
1543.25	60.0719
1543.5	59.798
1543.76	59.5436
1544.02	59.3552
1544.28	59.1449
1544.53	58.9974
1544.79	59.046
1545.05	58.9901
1545.31	59.1209
1545.56	59.1758
1545.82	59.3444
1546.08	59.5222
1546.34	59.7076
1546.59	59.8976
1546.85	60.1078
1547.11	60.304
1547.37	60.5076
1547.62	60.6978
1547.88	60.8993
1548.14	61.0501
1548.39	61.2308
1548.65	61.4323
1548.91	61.518
1549.17	61.4813
1549.42	61.2744
1549.68	61.0524
1549.94	60.78
1550.2	60.5175
1550.45	60.3485
1550.71	60.1716
1550.97	60.1005
1551.22	60.0271
1551.48	59.9949
1551.74	60.0102
1552	60.1296
1552.25	60.252
1552.51	60.36
1552.77	60.4669
1553.02	60.5832
1553.28	60.7058
1553.54	60.8143
1553.79	60.9069
1554.05	61.0127
1554.31	61.0449
1554.56	61.1011
1554.82	61.1747
1555.08	61.2273
1555.33	61.2817
1555.59	61.3468
1555.85	61.4381
1556.11	61.4263
1556.36	61.4401
1556.62	61.4218
1556.88	61.4306
1557.13	61.4221
1557.39	61.4207
1557.65	61.4441
1557.9	61.4813
1558.16	61.5634
1558.42	61.6667
1558.67	62.1339
1558.93	62.5262
1559.19	62.9509
1559.44	63.3839
1559.7	63.8421
1559.95	64.2885
1560.21	64.1862
1560.47	63.676
1560.72	63.6885
1560.98	63.6969
1561.24	63.7106
1561.49	63.7266
1561.75	63.7275
1562.01	63.7361
1562.26	63.7414
1562.52	63.7479
1562.78	63.7602
1563.03	63.778
1563.29	63.8014
1563.54	63.8218
1563.8	63.8559
1564.06	63.8776
1564.31	63.8975
1564.57	63.9205
1564.82	63.9262
1565.08	63.9298
1565.34	63.9564
1565.59	63.978
1565.85	64.0181
1566.11	64.0503
1566.36	64.0327
1566.62	64.0028
1566.87	63.957
1567.13	63.8842
1567.39	63.796
1567.64	63.6827
1567.9	63.5551
1568.15	63.4012
1568.41	63.2577
1568.66	63.1118
1568.92	62.9705
1569.18	62.8302
1569.43	62.6976
1569.69	62.5879
1569.94	62.4748
1570.2	62.3665
1570.46	62.2532
1570.67	62.1567
1570.93	62.0541
1571.19	61.9766
1571.45	61.9328
1571.71	61.906
1571.97	61.9458
1572.23	62.2126
1572.49	62.4925
1572.75	62.8073
1573.01	63.1298
1573.27	63.3787
1573.53	63.6462
1573.79	63.8699
1574.05	64.0615
1574.31	64.2194
1574.57	64.3248
1574.83	64.0158
1575.09	63.77
1575.35	63.4441
1575.61	63.0289
1575.87	62.523
1576.13	61.924
1576.38	61.2036
1576.64	60.4638
1576.9	59.5576
1577.16	58.7168
1577.42	57.4777
1577.68	56.2233
1577.94	54.9161
1578.2	53.6034
1578.46	52.2992
1578.72	50.9763
1578.98	49.6698
1579.24	48.382
1579.5	47.2797
1579.76	46.3751
1580.02	45.4302
1580.28	44.6275
1580.54	43.7703
1580.8	43.1933
1581.05	42.6985
1581.31	42.2568
1581.57	41.8592
1581.83	41.4912
1582.09	41.1697
1582.35	40.876
1582.61	40.6149
1582.87	40.3814
1583.13	40.1682
1583.39	39.9838
1583.65	39.8081
1583.91	39.6631
1584.17	39.5166
1584.42	39.403
1584.68	39.2477
1584.94	39.1149
1585.2	38.9526
1585.46	38.8208
1585.72	38.6953
1585.98	38.5768
1586.24	38.4671
1586.5	38.3671
1586.75	38.2889
1587.01	38.2092
1587.27	38.14
1587.53	38.0815
1587.79	38.0322
1588.05	37.9894
1588.31	37.9532
1588.57	37.9226
1588.83	37.8969
1589.08	37.875
1589.34	37.8572
1589.6	37.8406
1589.86	37.8274
1590.12	37.8116
1590.38	37.7996
1590.64	37.7816
1590.9	37.7688
1591.15	37.7421
1591.41	37.722
1591.67	37.6961
1591.93	37.6746
1592.19	37.649
1592.45	37.6254
1592.7	37.6004
1592.96	37.5744
1593.22	37.5512
1593.48	37.4673
1593.74	37.4414
1594	37.4208
1594.26	37.4063
1594.51	37.3987
1594.77	37.3979
1595.03	37.4048
1595.29	37.4196
1595.55	37.4529
1595.81	37.4789
1596.06	37.5227
1596.32	37.5608
1596.58	37.615
1596.84	37.6661
1597.1	37.7303
1597.36	37.7945
1597.61	37.8679
1597.87	37.9447
1598.13	38.0309
1598.39	38.1233
1598.65	38.2025
1598.9	38.2992
1599.16	38.3722
1599.42	38.4655
1599.68	38.5245
1599.94	38.6002
1600.19	38.6363
1600.45	38.6822
1600.71	38.6911
1600.97	38.7009
1601.23	38.6806
1601.48	38.4616
1601.74	38.4137
1602	38.3212
1602.26	38.258
1602.52	38.1559
1602.77	38.0783
1603.03	37.9693
1603.29	37.8397
1603.55	37.7257
1603.8	37.614
1604.06	37.3156
1604.32	37.2498
1604.58	37.1962
1604.83	37.1601
1605.09	37.1267
1605.35	37.1093
1605.61	37.1091
1605.87	37.2245
1606.12	37.3209
1606.38	37.4966
1606.64	37.5732
1606.9	37.6957
1607.15	37.7746
1607.41	37.8274
1607.67	37.9005
1607.93	37.9371
1608.18	38.0884
1608.44	38.0886
1608.7	38.104
1608.96	38.0852
1609.21	38.0859
1609.47	38.0498
1609.73	38.0344
1609.98	37.9846
1610.24	37.9523
1610.5	37.8952
1610.76	37.8506
1611.01	37.7803
1611.27	37.7043
1611.53	37.6563
1611.79	37.5984
1612.04	37.4887
1612.3	37.4559
1612.56	37.444
1612.81	37.4174
1613.07	37.4178
1613.33	37.4008
1613.59	37.4139
1613.84	37.4095
1614.1	37.4334
1614.36	37.4433
1614.61	37.4751
1614.87	37.523
1615.13	37.6848
1615.38	37.7912
1615.64	37.8549
1615.9	38.0099
1616.16	38.0197
1616.41	38.0612
1616.67	38.0731
1616.93	38.0888
1617.18	38.0732
1617.44	38.073
1617.7	38.0441
1617.95	38.0248
1618.21	37.9517
1618.47	37.9391
1618.72	37.717
1618.98	37.6546
1619.24	37.4115
1619.49	37.4278
1619.75	37.418
1620.01	37.4412
1620.26	37.4633
1620.52	37.4985
1620.78	37.5368
1621.03	37.6014
1621.29	37.8645
1621.55	37.9599
1621.8	38.0732
1622.06	38.338
1622.32	38.3298
1622.57	38.3076
1622.83	38.2642
1623.09	38.2225
1623.34	38.1543
1623.6	38.0995
1623.85	37.8907
1624.11	37.791
1624.37	37.6931
1624.62	37.5814
1624.88	37.4826
1625.14	37.4152
1625.39	37.3269
1625.65	37.2774
1625.9	37.204
1626.16	37.1725
1626.42	37.1167
1626.67	37.1003
1626.93	37.0625
1627.19	37.0584
1627.44	37.0362
1627.7	37.1227
1627.95	37.1594
1628.21	37.1802
1628.47	37.1969
1628.72	37.2167
1628.98	37.2333
1629.23	37.2534
1629.49	37.2683
1629.75	37.2857
1630	37.2974
1630.26	37.3092
1630.51	37.3152
1630.77	37.3357
1631.03	37.3361
1631.28	37.3388
1631.54	37.2806
1631.79	37.2641
1632.05	37.1872
1632.3	37.1498
1632.56	37.0644
1632.82	36.9825
1633.07	36.904
1633.33	36.8282
1633.58	36.7981
1633.84	36.7895
1634.1	36.8676
1634.35	37.7605
1634.61	38.4947
1634.86	39.2828
1635.12	38.403
1635.37	36.8071
1635.63	36.3772
1635.89	36.9214
1636.14	37.0342
1636.4	37.1788
1636.65	37.386
1636.91	37.5851
1637.16	37.7527
1637.42	37.8591
1637.67	37.8806
1637.93	37.8124
1638.18	37.6417
1638.44	37.4095
1638.69	37.2104
1638.95	37.0117
1639.21	36.9078
1639.46	36.7959
1639.72	36.6955
1639.97	36.5769
1640.23	36.521
1640.48	36.4594
1640.74	36.4307
1640.99	36.3803
1641.25	36.3722
1641.5	36.3295
1641.76	36.3394
1642.01	36.3058
1642.27	36.203
1642.52	36.2573
1642.78	36.3234
1643.03	36.3976
1643.29	36.4774
1643.54	36.5637
1643.8	36.6558
1644.05	36.7536
1644.31	36.9178
1644.56	37.0107
1644.82	37.0943
1645.07	37.1682
1645.33	37.2292
1645.58	37.279
1645.84	37.3179
1646.09	37.3461
1646.35	37.3678
1646.6	37.3778
1646.86	37.3838
1647.11	37.3795
1647.37	37.3737
1647.62	37.3623
1647.88	37.3497
1648.13	37.3361
1648.39	37.32
1648.64	37.3059
1648.89	37.288
1649.15	37.2743
1649.4	37.2556
1649.66	37.2416
1649.91	37.2212
1650.17	37.2049
1650.42	37.1815
1650.68	37.161
1650.93	37.133
1651.19	37.1069
1651.44	37.0732
1651.69	37.0404
1651.95	37.0004
1652.2	36.9609
1652.46	36.9147
1652.71	36.8691
1652.97	36.8175
1653.22	36.7663
1653.48	36.7101
1653.73	36.6541
1653.98	36.5941
1654.24	36.5337
1654.49	36.471
1654.75	36.4073
1655	36.3411
1655.26	36.2733
1655.51	36.2046
1655.76	36.136
1656.02	36.0686
1656.27	36.0038
1656.53	35.9431
1656.78	35.8878
1657.04	35.8413
1657.29	35.8044
1657.54	35.7781
1657.8	35.7629
1658.05	35.759
1658.31	35.7668
1658.56	35.7862
1658.81	35.8167
1659.07	35.858
1659.32	35.9095
1659.57	35.9703
1659.83	36.0376
1660.08	36.1103
1660.34	36.187
1660.59	36.2664
1660.84	36.3475
1661.1	36.4229
1661.35	36.4982
1661.61	36.5727
1661.86	36.6462
1662.11	36.7182
1662.37	36.7882
1662.62	36.8556
1662.87	36.9198
1663.13	36.9801
1663.38	37.0358
1663.64	37.1145
1663.89	37.1476
1664.14	37.1737
1664.4	37.1932
1664.65	37.2069
1664.9	37.2156
1665.16	37.2206
1665.41	37.2271
1665.66	37.2235
1665.92	37.223
1666.17	37.2126
1666.42	37.2069
1666.68	37.1915
1666.93	37.1824
1667.19	37.1637
1667.44	37.1527
1667.69	37.1316
1667.94	37.1195
1668.2	37.0975
1668.45	37.0855
1668.7	37.0642
1668.96	37.0564
1669.21	37.0396
1669.46	37.0373
1669.72	37.0267
1669.97	37.0271
1670.22	37.0223
1670.48	37.0217
1670.73	37.0212
1670.98	37.0136
1671.24	37.0693
1671.49	37.1081
1671.74	37.0184
1672	36.946
1672.25	36.8475
1672.5	36.7511
1672.76	36.6476
1673.01	36.5312
1673.26	36.4285
1673.51	36.2968
1673.77	36.2042
1674.02	36.0734
1674.27	35.955
1674.53	35.862
1674.78	35.7548
1675.03	35.8084
1675.28	35.8767
1675.54	36.4953
1675.79	36.773
1676.04	37.1236
1676.3	37.4408
1676.55	37.7675
1676.8	38.0374
1677.05	38.3484
1677.31	38.3115
1677.56	38.2562
1677.81	37.844
1678.06	37.5742
1678.32	37.2745
1678.57	37.0426
1678.82	36.8646
1679.08	36.6966
1679.33	36.5462
1679.58	36.5731
1679.83	36.5802
1680.09	36.6164
1680.34	36.6705
1680.59	36.733
1680.84	36.7879
1681.09	36.8636
1681.35	36.9224
1681.6	36.9295
1681.85	37.0414
1682.11	37.1635
1682.36	37.2797
1682.61	37.404
1682.86	37.5217
1683.11	37.6471
1683.37	37.7594
1683.62	37.8816
1683.87	37.9775
1684.12	38.1118
1684.38	38.1727
1684.63	38.2629
1684.88	38.2787
1685.13	38.3312
1685.38	38.4469
1685.64	38.2493
1685.89	38.0579
1686.14	37.8198
1686.39	37.3889
1686.65	37.0606
1686.9	36.7063
1687.15	36.3889
1687.4	36.0777
1687.65	35.803
1687.91	35.5856
1688.16	35.3855
1688.41	35.2198
1688.66	35.0607
1688.91	35.1078
1689.16	35.0487
1689.42	35.0775
1689.67	35.0645
1689.92	35.076
1690.17	35.0832
1690.42	35.1146
1690.68	35.1386
1690.93	35.1856
1691.18	35.2296
1691.43	35.2888
1691.68	35.351
1691.93	35.4188
1692.19	35.4922
1692.44	35.5772
1692.69	35.6578
1692.94	35.7265
1693.19	35.8029
1693.44	35.8889
1693.7	35.9274
1693.95	35.983
1694.2	36.0109
1694.45	36.0628
1694.7	36.0796
1694.95	36.0091
1695.2	35.9936
1695.46	36.0075
1695.71	35.9809
1695.96	35.9483
1696.21	35.9448
1696.46	35.9071
1696.71	35.8667
1696.96	35.8394
1697.22	35.7907
1697.47	35.7433
1697.72	35.7088
1697.97	35.6633
1698.22	35.6213
1698.47	35.5828
1698.72	35.5499
1698.98	35.5238
1699.23	35.5061
1699.48	35.8658
1699.73	36.0544
1699.98	36.4847
