#Acq. time (s)=	10
#Accumulations=	1
#Range (cm-¹)=	1300...1700
#Windows=	2
#Autofocus=	Off
#AutoExposure=	Off
#Spike filter=	Single accum. (Size=3)
#Delay time (s)=	0.1
#Binning=	1
#Readout mode=	Signal
#DeNoise=	Standard
#ICS correction=	On
#Dark correction=	Off
#Inst. Process=	Off
#Instrument=	LabRAM HR Evol
#Detector=	Synapse
#Objective=	x20SLWD
#Grating=	1800 gr/mm
#ND Filter=	100%
#Laser (nm)=	633 
#Hole=	150.001
#Range=	Visible
#Collection=	Microscope
#StageXY=	Marzhauser
#StageZ=	Marzhauser
#X (µm)=	0
#Y (µm)=	0
#Z (µm)=	0
#Project=	20190124
#Sample=	1-2
#Site=	
#Title=	D_78
#Remark=	
#Date=	19.05.2019 01:10
#Acquired=	19.05.2019 01:10:33
1300.13	127.615
1300.4	127.073
1300.68	126.356
1300.95	125.718
1301.23	124.945
1301.5	124.942
1301.78	125.338
1302.05	125.395
1302.32	125.38
1302.6	125.545
1302.87	125.589
1303.15	125.819
1303.42	125.801
1303.69	125.724
1303.97	125.73
1304.24	125.917
1304.52	126.1
1304.79	126.309
1305.07	126.601
1305.34	126.954
1305.61	127.287
1305.89	127.532
1306.16	127.72
1306.44	127.656
1306.71	127.754
1306.98	128.303
1307.26	128.737
1307.53	128.741
1307.8	128.817
1308.08	129.02
1308.35	129.163
1308.63	129.098
1308.9	129.122
1309.17	129.359
1309.45	129.538
1309.72	129.854
1310	130.025
1310.27	130.158
1310.54	130.445
1310.82	130.731
1311.09	131.88
1311.36	131.999
1311.64	131.665
1311.91	131.233
1312.19	130.895
1312.46	130.566
1312.73	129.997
1313.01	129.642
1313.28	129.712
1313.55	130.07
1313.83	130.535
1314.1	130.934
1314.37	131.596
1314.65	133.267
1314.92	134.103
1315.19	134.994
1315.47	135.676
1315.74	136.035
1316.01	136.63
1316.29	137.251
1316.56	137.868
1316.83	138.462
1317.11	138.92
1317.38	139.593
1317.65	140.547
1317.93	141.379
1318.2	142.39
1318.47	143.541
1318.75	144.724
1319.02	146.089
1319.29	146.984
1319.57	147.973
1319.84	148.815
1320.11	149.624
1320.39	150.497
1320.66	151.013
1320.93	151.862
1321.2	152.675
1321.48	154.099
1321.75	156.324
1322.02	158.712
1322.3	160.97
1322.57	163.206
1322.84	165.284
1323.11	167.557
1323.39	170.012
1323.66	172.641
1323.93	175.234
1324.21	178.214
1324.48	181.301
1324.75	184.711
1325.02	188.363
1325.3	192.174
1325.57	196.142
1325.84	201.533
1326.11	207.251
1326.39	212.918
1326.66	219.378
1326.93	224.534
1327.2	229.998
1327.48	236.68
1327.75	246.506
1328.02	265.875
1328.3	285.082
1328.57	309.506
1328.84	328.833
1329.11	344.387
1329.38	369.019
1329.66	398.838
1329.93	442.05
1330.2	495.973
1330.47	564.818
1330.75	657.49
1331.02	776.259
1331.29	954.412
1331.56	1201.12
1331.84	1573.78
1332.11	2021.75
1332.38	2548.18
1332.65	3117.71
1332.93	3546.86
1333.2	3847.16
1333.47	3930.25
1333.74	3822.48
1334.01	3647.42
1334.29	3451.68
1334.56	3248.2
1334.83	3028.07
1335.1	2838.65
1335.37	2668.08
1335.65	2515.92
1335.92	2384.22
1336.19	2266.69
1336.46	2158.01
1336.73	2059.1
1337.01	1969.06
1337.28	1886.72
1337.55	1806.5
1337.82	1734.87
1338.09	1669.75
1338.36	1605.49
1338.64	1549.55
1338.91	1496.41
1339.18	1447.01
1339.45	1402.1
1339.72	1360.15
1340	1322.29
1340.27	1287.76
1340.54	1252.17
1340.81	1222.63
1341.08	1193.41
1341.35	1167.88
1341.63	1143.7
1341.9	1120.54
1342.17	1098.19
1342.44	1076.69
1342.71	1055.46
1342.98	1034.6
1343.26	1015.61
1343.53	996.303
1343.8	976.745
1344.07	958.189
1344.34	940.257
1344.61	923.297
1344.88	906.816
1345.15	890.49
1345.43	875.163
1345.7	860.188
1345.97	846.171
1346.24	832.381
1346.51	819.617
1346.78	807.774
1347.05	796.826
1347.32	785.975
1347.6	776.631
1347.87	766.957
1348.14	758.584
1348.41	750.443
1348.68	741.978
1348.95	735.775
1349.22	729.824
1349.49	725.899
1349.77	722.655
1350.04	718.549
1350.31	712.624
1350.58	692.592
1350.85	681.983
1351.12	677.343
1351.39	670.682
1351.66	664.842
1351.93	659.5
1352.2	654.629
1352.48	649.633
1352.75	644.993
1353.02	640.269
1353.29	635.115
1353.56	630.591
1353.83	624.836
1354.1	619.088
1354.37	613.031
1354.64	606.706
1354.91	599.031
1355.18	593.055
1355.45	587.462
1355.72	581.981
1355.99	576.021
1356.26	570.787
1356.54	565.626
1356.81	561.379
1357.08	557.852
1357.35	554.208
1357.62	550.645
1357.89	546.643
1358.16	543.01
1358.43	539.652
1358.7	536.275
1358.97	533.246
1359.24	530.212
1359.51	527.527
1359.78	524.711
1360.05	522.547
1360.32	519.832
1360.59	517.484
1360.86	515.146
1361.13	512.987
1361.4	510.759
1361.67	508.499
1361.94	506.287
1362.21	504.12
1362.48	502.231
1362.75	500.361
1363.02	498.22
1363.29	495.747
1363.56	493.381
1363.83	491.512
1364.1	489.374
1364.37	487.296
1364.64	485.074
1364.91	482.892
1365.18	480.485
1365.45	477.708
1365.72	475.376
1365.99	473.815
1366.26	472.872
1366.53	471.52
1366.8	470.054
1367.07	469.196
1367.34	468.329
1367.61	467.871
1367.88	466.972
1368.15	465.646
1368.42	463.44
1368.69	460.894
1368.96	458.38
1369.23	456.626
1369.5	454.433
1369.77	451.905
1370.04	450.433
1370.31	448.923
1370.58	447.648
1370.85	446.802
1371.12	445.431
1371.39	445.744
1371.66	445.237
1371.93	444.222
1372.2	443.078
1372.47	441.922
1372.74	439.908
1373.01	437.732
1373.28	436.409
1373.55	435.331
1373.81	434.671
1374.08	433.765
1374.35	433.151
1374.62	432.992
1374.89	433.344
1375.16	433.698
1375.43	434.272
1375.7	433.987
1375.97	433.645
1376.24	433.353
1376.51	433.121
1376.78	432.239
1377.05	430.876
1377.31	429.378
1377.58	427.839
1377.85	425.496
1378.12	423.54
1378.39	422.525
1378.66	421.839
1378.93	420.886
1379.2	420.145
1379.47	419.322
1379.74	418.691
1380.01	418.653
1380.27	419.174
1380.54	419.681
1380.81	419.391
1381.08	418.829
1381.35	418.907
1381.62	418.99
1381.89	418.851
1382.16	418.81
1382.43	419.012
1382.69	419.263
1382.96	419.408
1383.23	419.71
1383.5	420.124
1383.77	419.914
1384.04	419.49
1384.31	419.088
1384.58	418.926
1384.84	419.564
1385.11	420.628
1385.38	421.333
1385.65	422.638
1385.92	424.131
1386.19	425.313
1386.46	427.203
1386.72	428.797
1386.99	431.151
1387.26	433.974
1387.53	436.721
1387.8	439.244
1388.07	441.338
1388.34	443.696
1388.6	445.628
1388.87	447.672
1389.14	450.031
1389.41	452.358
1389.68	454.338
1389.94	456.789
1390.21	459.664
1390.48	464.199
1390.75	469.219
1391.02	475.693
1391.29	481.661
1391.55	490.499
1391.82	500.486
1392.09	510.882
1392.36	523.897
1392.63	537.2
1392.9	550.965
1393.16	565.278
1393.43	577.166
1393.7	585.201
1393.97	589.446
1394.23	587.765
1394.5	584.286
1394.77	575.925
1395.04	568.915
1395.31	560.422
1395.58	551.325
1395.84	542.427
1396.11	533.055
1396.38	524.995
1396.65	517.051
1396.91	509.598
1397.18	501.704
1397.45	494.525
1397.72	486.901
1397.99	480.134
1398.25	473.635
1398.52	467.837
1398.79	463.022
1399.06	459.084
1399.32	455.868
1399.59	452.738
1399.86	449.443
1400.13	446.88
1400.39	444.655
1400.66	442.11
1400.93	439.61
1401.2	437.039
1401.46	433.614
1401.73	430.337
1402	427.461
1402.27	424.093
1402.53	421.63
1402.8	419.084
1403.07	416.388
1403.34	414.154
1403.6	411.533
1403.87	409.655
1404.14	407.928
1404.41	406.903
1404.67	406.009
1404.94	405.287
1405.21	404.453
1405.48	404.261
1405.74	403.154
1406.01	402.051
1406.28	401.356
1406.54	400.649
1406.81	399.783
1407.08	399.199
1407.34	398.861
1407.61	398.533
1407.88	398.256
1408.15	397.541
1408.41	397.148
1408.68	397.154
1408.95	397.218
1409.21	398.108
1409.48	399.504
1409.75	401.045
1410.01	402.343
1410.28	403.804
1410.55	404.783
1410.82	405.463
1411.08	406.168
1411.35	406.573
1411.62	407.359
1411.88	407.883
1412.15	408.693
1412.42	409.428
1412.68	409.466
1412.95	409.886
1413.22	411.209
1413.48	411.933
1413.75	413.861
1414.02	415.19
1414.28	416.815
1414.55	417.753
1414.82	418.222
1415.08	418.694
1415.35	419.262
1415.62	419.364
1415.88	418.95
1416.15	417.946
1416.42	416.605
1416.68	414.85
1416.95	412.277
1417.21	408.433
1417.48	404.563
1417.75	400.796
1418.01	395.805
1418.28	390.34
1418.55	383.984
1418.81	377.123
1419.08	370.179
1419.34	362.153
1419.61	354.095
1419.88	346.099
1420.14	338.506
1420.41	330.706
1420.68	322.216
1420.94	314.244
1421.21	306.463
1421.47	298.267
1421.74	289.887
1422.01	281.728
1422.27	273.695
1422.54	265.63
1422.81	258.284
1423.07	251.172
1423.34	243.797
1423.6	236.674
1423.87	229.901
1424.14	223.501
1424.4	217.822
1424.67	212.829
1424.93	207.968
1425.2	203.605
1425.46	200.021
1425.73	196.959
1426	193.433
1426.26	190.059
1426.53	186.847
1426.79	183.884
1427.06	180.995
1427.32	178.123
1427.59	175.443
1427.86	173.162
1428.12	171.003
1428.39	168.731
1428.65	166.394
1428.92	164.022
1429.18	161.747
1429.45	159.453
1429.72	157.596
1429.98	156.039
1430.25	154.434
1430.51	153.428
1430.78	152.32
1431.04	151.664
1431.31	150.739
1431.57	150.252
1431.84	149.992
1432.1	149.696
1432.37	149.575
1432.64	149.305
1432.9	148.961
1433.17	148.839
1433.43	148.453
1433.7	147.951
1433.96	146.932
1434.23	145.026
1434.49	144.013
1434.76	143.287
1435.02	142.597
1435.29	141.976
1435.55	141.599
1435.82	141.415
1436.08	141.291
1436.35	141.472
1436.61	141.384
1436.88	141.354
1437.14	140.831
1437.41	140.157
1437.67	139.436
1437.94	138.361
1438.2	136.28
1438.47	135.031
1438.73	134.266
1439	133.803
1439.26	133.621
1439.53	133.203
1439.79	133.022
1440.06	133.132
1440.32	132.952
1440.59	133.186
1440.85	133.54
1441.12	133.761
1441.38	133.634
1441.65	133.636
1441.91	133.299
1442.18	132.678
1442.44	131.885
1442.71	131.301
1442.97	130.78
1443.23	130.503
1443.5	130.396
1443.76	130.59
1444.03	130.955
1444.29	131.356
1444.56	131.699
1444.82	132.33
1445.09	132.955
1445.35	133.349
1445.61	133.849
1445.88	134.586
1446.14	134.92
1446.41	135.058
1446.67	135.041
1446.94	134.781
1447.2	134.336
1447.47	133.658
1447.73	132.84
1447.99	132.132
1448.26	131.659
1448.52	130.999
1448.79	130.404
1449.05	129.901
1449.32	128.863
1449.58	128.686
1449.84	128.634
1450.11	128.753
1450.37	129.066
1450.64	129.452
1450.9	129.907
1451.16	130.128
1451.43	130.3
1451.69	130
1451.96	129.751
1452.22	129.894
1452.48	130.184
1452.75	130.352
1453.01	130.419
1453.28	130.432
1453.54	130.402
1453.8	130.878
1454.07	131.097
1454.33	131.083
1454.6	130.98
1454.86	130.823
1455.12	130.648
1455.39	130.429
1455.65	130.032
1455.91	129.724
1456.18	129.271
1456.44	128.568
1456.71	127.866
1456.97	127.284
1457.23	126.99
1457.5	127.034
1457.76	126.892
1458.02	126.839
1458.29	126.676
1458.55	126.48
1458.81	126.392
1459.08	126.402
1459.34	126.319
1459.61	126.126
1459.87	125.971
1460.13	125.943
1460.4	125.606
1460.66	125.41
1460.92	125.387
1461.19	125.22
1461.45	125.037
1461.71	124.874
1461.98	125.408
1462.24	125.272
1462.5	125.616
1462.77	125.305
1463.03	123.86
1463.29	122.866
1463.55	121.647
1463.82	121.791
1464.08	122.433
1464.35	123.707
1464.61	125.079
1464.87	127.639
1465.13	130.519
1465.4	136.281
1465.66	130.47
1465.92	123.695
1466.19	123.034
1466.45	122.324
1466.71	124.826
1466.98	123.472
1467.24	123.044
1467.5	124.63
1467.76	125.801
1468.03	125.666
1468.29	125.856
1468.55	125.925
1468.82	126.004
1469.08	126.267
1469.34	126.445
1469.6	126.563
1469.87	126.754
1470.13	126.96
1470.39	127.134
1470.66	127.25
1470.92	127.177
1471.18	127.177
1471.44	127.328
1471.71	127.344
1471.97	127.612
1472.23	127.344
1472.49	126.98
1472.76	126.744
1473.02	126.612
1473.28	126.427
1473.54	125.916
1473.81	124.871
1474.07	124.056
1474.33	123.382
1474.59	123.126
1474.86	122.739
1475.12	122.399
1475.38	122.375
1475.64	122.543
1475.91	122.797
1476.17	123.073
1476.43	123.458
1476.69	123.953
1476.96	124.489
1477.22	125.171
1477.48	125.634
1477.74	126.06
1478	126.319
1478.27	126.389
1478.53	126.058
1478.79	125.556
1479.05	125.027
1479.32	124.696
1479.58	124.56
1479.84	124.532
1480.1	124.405
1480.36	124.098
1480.63	123.998
1480.89	123.641
1481.15	123.26
1481.41	123.194
1481.67	123.066
1481.93	123.063
1482.2	123.272
1482.46	123.349
1482.72	123.456
1482.98	123.344
1483.25	123.286
1483.51	122.859
1483.77	122.323
1484.03	122.172
1484.29	122.534
1484.55	123.097
1484.82	123.545
1485.08	124.042
1485.34	125.636
1485.6	125.912
1485.86	126.052
1486.12	125.846
1486.39	125.644
1486.65	125.105
1486.91	124.675
1487.17	124.713
1487.43	124.813
1487.69	125.188
1487.96	125.885
1488.22	126.468
1488.48	127.139
1488.74	127.57
1489	127.784
1489.26	127.339
1489.52	127.07
1489.78	126.576
1490.05	125.946
1490.31	125.111
1490.57	124.428
1490.83	123.698
1491.09	122.843
1491.35	122.461
1491.61	121.941
1491.88	121.654
1492.14	121.969
1492.4	122.361
1492.66	123.053
1492.92	123.963
1493.18	124.624
1493.44	125.243
1493.7	125.813
1493.96	126.455
1494.23	126.945
1494.49	127.204
1494.75	127.408
1495.01	127.28
1495.27	127.022
1495.53	126.916
1495.79	126.601
1496.05	126.165
1496.31	125.976
1496.57	125.905
1496.84	125.546
1497.1	125.412
1497.36	125.407
1497.62	125.178
1497.88	125.192
1498.14	125.164
1498.4	125.224
1498.66	125.264
1498.92	125.423
1499.18	125.31
1499.44	124.9
1499.7	124.621
1499.97	124.717
1500.23	124.214
1500.49	123.51
1500.75	122.514
1501.01	121.521
1501.27	120.632
1501.53	119.935
1501.79	119.903
1502.05	119.802
1502.31	120.029
1502.57	120.409
1502.83	120.954
1503.09	122.257
1503.35	123.229
1503.61	124.321
1503.87	125.436
1504.13	126.477
1504.39	126.919
1504.65	127.111
1504.91	126.97
1505.18	127.097
1505.44	126.746
1505.7	126.132
1505.96	125.719
1506.22	124.82
1506.48	124.069
1506.74	123.379
1507	122.607
1507.26	121.742
1507.52	121.323
1507.78	120.842
1508.04	120.592
1508.3	120.695
1508.56	121.056
1508.82	121.382
1509.08	121.882
1509.34	122.233
1509.6	122.175
1509.86	122.225
1510.12	122.386
1510.38	122.645
1510.64	122.876
1510.9	122.984
1511.16	123.196
1511.42	123.262
1511.68	123.117
1511.94	122.815
1512.2	122.589
1512.46	122.409
1512.72	122.497
1512.98	122.163
1513.24	122.264
1513.5	122.512
1513.76	122.609
1514.02	122.727
1514.27	123.001
1514.53	123.346
1514.79	123.545
1515.05	123.474
1515.31	123.632
1515.57	123.882
1515.83	124.018
1516.09	124.084
1516.35	123.989
1516.61	123.984
1516.87	124.193
1517.13	124.084
1517.39	123.803
1517.65	123.453
1517.91	122.904
1518.17	122.561
1518.43	122.593
1518.69	122.673
1518.95	122.203
1519.21	122.014
1519.46	121.773
1519.72	121.786
1519.98	121.954
1520.24	122.102
1520.5	122.373
1520.76	122.738
1521.02	122.985
1521.28	123.14
1521.54	123.204
1521.8	123.363
1522.06	123.408
1522.32	123.461
1522.58	123.527
1522.83	123.832
1523.09	123.903
1523.35	123.608
1523.61	123.529
1523.87	123.566
1524.13	123.633
1524.39	123.45
1524.65	123.284
1524.91	123.022
1525.17	122.398
1525.42	122.048
1525.68	121.758
1525.94	121.359
1526.2	120.992
1526.46	120.699
1526.72	120.941
1526.98	121.745
1527.24	121.509
1527.5	120.704
1527.75	120.788
1528.01	121.183
1528.27	121.835
1528.53	122.693
1528.79	123.782
1529.05	124.711
1529.31	124.95
1529.56	124.155
1529.82	123.296
1530.08	122.872
1530.34	122.908
1530.6	122.912
1530.86	124.818
1531.12	124.896
1531.37	124.756
1531.63	124.539
1531.89	124.417
1532.15	124.311
1532.41	124.16
1532.67	124.2
1532.92	124.283
1533.18	124.52
1533.44	124.632
1533.7	124.648
1533.96	124.201
1534.22	123.819
1534.47	123.369
1534.73	122.932
1534.99	122.702
1535.25	122.147
1535.51	121.839
1535.77	121.506
1536.02	121.47
1536.28	120.996
1536.54	120.802
1536.8	120.462
1537.06	120.368
1537.31	120.625
1537.57	120.966
1537.83	121.694
1538.09	122.172
1538.35	122.714
1538.6	123.138
1538.86	123.351
1539.12	123.404
1539.38	123.588
1539.64	123.726
1539.89	123.737
1540.15	123.502
1540.41	123.301
1540.67	123.217
1540.93	122.96
1541.18	122.736
1541.44	122.28
1541.7	121.901
1541.96	121.657
1542.21	121.77
1542.47	122.007
1542.73	122.056
1542.99	122.365
1543.25	122.616
1543.5	122.837
1543.76	123.081
1544.02	123.385
1544.28	123.693
1544.53	124.107
1544.79	124.217
1545.05	124.212
1545.31	124.365
1545.56	124.48
1545.82	124.649
1546.08	124.611
1546.34	124.454
1546.59	124.072
1546.85	123.763
1547.11	123.559
1547.37	123.363
1547.62	123.042
1547.88	122.937
1548.14	122.83
1548.39	122.922
1548.65	122.953
1548.91	123.011
1549.17	122.999
1549.42	123.001
1549.68	123.273
1549.94	123.385
1550.2	123.486
1550.45	123.729
1550.71	123.803
1550.97	123.83
1551.22	123.549
1551.48	123.275
1551.74	123.13
1552	123.067
1552.25	123.015
1552.51	122.929
1552.77	123.024
1553.02	123.189
1553.28	123.508
1553.54	123.763
1553.79	123.99
1554.05	124.233
1554.31	124.573
1554.56	124.773
1554.82	124.864
1555.08	124.758
1555.33	124.702
1555.59	124.521
1555.85	124.391
1556.11	124.345
1556.36	124.275
1556.62	124.398
1556.88	124.39
1557.13	124.194
1557.39	124.039
1557.65	124.07
1557.9	124.297
1558.16	124.603
1558.42	124.706
1558.67	124.962
1558.93	125.199
1559.19	125.287
1559.44	125.451
1559.7	125.545
1559.95	125.599
1560.21	125.611
1560.47	125.712
1560.72	125.739
1560.98	125.682
1561.24	125.64
1561.49	125.694
1561.75	125.564
1562.01	125.292
1562.26	125.115
1562.52	125.037
1562.78	124.975
1563.03	124.986
1563.29	125.124
1563.54	125.286
1563.8	125.508
1564.06	125.772
1564.31	126.046
1564.57	126.381
1564.82	126.736
1565.08	127.053
1565.34	127.141
1565.59	127.002
1565.85	126.829
1566.11	126.635
1566.36	126.419
1566.62	126.135
1566.87	125.832
1567.13	125.513
1567.39	125.077
1567.64	124.65
1567.9	124.517
1568.15	124.468
1568.41	124.536
1568.66	124.585
1568.92	124.677
1569.18	124.779
1569.43	124.921
1569.69	125.096
1569.94	125.263
1570.2	125.421
1570.46	125.584
1570.67	125.7
1570.93	125.84
1571.19	125.973
1571.45	125.981
1571.71	126.051
1571.97	126.136
1572.23	126.255
1572.49	126.392
1572.75	126.514
1573.01	126.657
1573.27	126.781
1573.53	126.916
1573.79	127.04
1574.05	127.165
1574.31	127.278
1574.57	127.404
1574.83	127.534
1575.09	127.666
1575.35	127.818
1575.61	127.893
1575.87	127.977
1576.13	128.006
1576.38	128.025
1576.64	128.202
1576.9	128.249
1577.16	128.16
1577.42	127.407
1577.68	126.807
1577.94	126.157
1578.2	125.534
1578.46	125.017
1578.72	124.416
1578.98	123.938
1579.24	123.596
1579.5	123.426
1579.76	123.382
1580.02	123.722
1580.28	124.287
1580.54	124.966
1580.8	125.732
1581.05	126.665
1581.31	127.632
1581.57	128.566
1581.83	129.421
1582.09	130.153
1582.35	130.744
1582.61	131.196
1582.87	131.435
1583.13	131.512
1583.39	131.422
1583.65	131.061
1583.91	130.463
1584.17	129.618
1584.42	128.509
1584.68	127.36
1584.94	126.249
1585.2	125.218
1585.46	124.618
1585.72	124.018
1585.98	123.531
1586.24	123.191
1586.5	122.99
1586.75	122.861
1587.01	122.987
1587.27	123.179
1587.53	123.553
1587.79	123.996
1588.05	124.455
1588.31	124.956
1588.57	125.443
1588.83	125.958
1589.08	126.44
1589.34	126.924
1589.6	127.326
1589.86	127.78
1590.12	127.742
1590.38	127.647
1590.64	127.487
1590.9	127.291
1591.15	127.043
1591.41	126.742
1591.67	126.51
1591.93	126.264
1592.19	126.062
1592.45	125.858
1592.7	125.686
1592.96	125.732
1593.22	125.633
1593.48	125.55
1593.74	125.475
1594	125.388
1594.26	125.311
1594.51	125.234
1594.77	125.156
1595.03	125.087
1595.29	125.017
1595.55	124.957
1595.81	124.894
1596.06	124.843
1596.32	124.78
1596.58	124.739
1596.84	124.696
1597.1	124.666
1597.36	124.645
1597.61	124.625
1597.87	124.599
1598.13	124.592
1598.39	124.556
1598.65	124.478
1598.9	124.468
1599.16	124.512
1599.42	124.56
1599.68	124.632
1599.94	124.717
1600.19	124.804
1600.45	124.922
1600.71	125.018
1600.97	125.244
1601.23	125.316
1601.48	125.442
1601.74	125.514
1602	125.602
1602.26	125.673
1602.52	125.735
1602.77	125.778
1603.03	125.844
1603.29	125.466
1603.55	125.348
1603.8	125.456
1604.06	125.548
1604.32	125.657
1604.58	125.801
1604.83	126.177
1605.09	126.351
1605.35	126.523
1605.61	126.617
1605.87	126.687
1606.12	126.723
1606.38	126.784
1606.64	126.543
1606.9	126.052
1607.15	125.546
1607.41	125.084
1607.67	124.568
1607.93	124.095
1608.18	123.559
1608.44	123.098
1608.7	122.766
1608.96	122.775
1609.21	122.841
1609.47	122.905
1609.73	122.974
1609.98	123.063
1610.24	123.162
1610.5	123.291
1610.76	123.432
1611.01	123.574
1611.27	123.733
1611.53	123.845
1611.79	123.787
1612.04	123.606
1612.3	123.505
1612.56	123.339
1612.81	123.142
1613.07	123.089
1613.33	123.24
1613.59	124.296
1613.84	125.007
1614.1	125.599
1614.36	125.669
1614.61	125.386
1614.87	125.083
1615.13	124.72
1615.38	124.407
1615.64	124.064
1615.9	123.709
1616.16	123.408
1616.41	123.048
1616.67	122.594
1616.93	122.631
1617.18	122.676
1617.44	122.835
1617.7	122.986
1617.95	123.226
1618.21	123.468
1618.47	123.753
1618.72	124.062
1618.98	124.34
1619.24	124.608
1619.49	124.897
1619.75	124.812
1620.01	124.949
1620.26	125.086
1620.52	125.192
1620.78	125.31
1621.03	125.5
1621.29	125.627
1621.55	125.819
1621.8	125.952
1622.06	126.112
1622.32	126.217
1622.57	126.275
1622.83	126.271
1623.09	126.17
1623.34	125.967
1623.6	125.042
1623.85	123.733
1624.11	121.769
1624.37	120.148
1624.62	118.469
1624.88	118.401
1625.14	119.268
1625.39	121.85
1625.65	123.171
1625.9	124.598
1626.16	125.744
1626.42	126.637
1626.67	127.351
1626.93	126.512
1627.19	126.279
1627.44	126.479
1627.7	126.723
1627.95	126.941
1628.21	127.048
1628.47	127.005
1628.72	126.971
1628.98	126.997
1629.23	126.674
1629.49	126.27
1629.75	125.874
1630	125.442
1630.26	125.017
1630.51	124.623
1630.77	124.217
1631.03	123.876
1631.28	123.562
1631.54	123.367
1631.79	123.158
1632.05	123.296
1632.3	123.449
1632.56	123.717
1632.82	123.954
1633.07	124.187
1633.33	124.392
1633.58	124.632
1633.84	124.959
1634.1	124.959
1634.35	124.902
1634.61	124.521
1634.86	124.279
1635.12	123.931
1635.37	123.674
1635.63	123.436
1635.89	123.311
1636.14	123.272
1636.4	123.212
1636.65	123.385
1636.91	123.587
1637.16	123.712
1637.42	123.843
1637.67	124.008
1637.93	124.147
1638.18	124.144
1638.44	124.108
1638.69	124.045
1638.95	123.982
1639.21	123.799
1639.46	123.588
1639.72	123.443
1639.97	123.298
1640.23	123.144
1640.48	123.112
1640.74	123.059
1640.99	123.163
1641.25	123.642
1641.5	124.057
1641.76	124.489
1642.01	124.998
1642.27	125.628
1642.52	125.885
1642.78	125.848
1643.03	125.266
1643.29	124.84
1643.54	124.417
1643.8	124.057
1644.05	123.719
1644.31	123.414
1644.56	123.275
1644.82	123.122
1645.07	123.248
1645.33	123.27
1645.58	123.735
1645.84	124.149
1646.09	124.705
1646.35	125.112
1646.6	125.527
1646.86	125.955
1647.11	126.139
1647.37	125.937
1647.62	125.702
1647.88	125.488
1648.13	125.234
1648.39	124.976
1648.64	124.7
1648.89	124.41
1649.15	124.238
1649.4	124.008
1649.66	123.959
1649.91	124.056
1650.17	124.127
1650.42	124.454
1650.68	124.717
1650.93	124.949
1651.19	125.188
1651.44	125.361
1651.69	125.415
1651.95	124.89
1652.2	123.58
1652.46	122.007
1652.71	121.401
1652.97	119.47
1653.22	119.552
1653.48	119.758
1653.73	120.199
1653.98	120.91
1654.24	121.655
1654.49	122.466
1654.75	122.971
1655	123.131
1655.26	122.911
1655.51	122.59
1655.76	120.985
1656.02	121.149
1656.27	121.717
1656.53	122.312
1656.78	122.869
1657.04	123.357
1657.29	123.774
1657.54	124.104
1657.8	124.362
1658.05	124.476
1658.31	124.524
1658.56	124.382
1658.81	124.103
1659.07	123.67
1659.32	122.949
1659.57	122.452
1659.83	122.056
1660.08	122.183
1660.34	122.461
1660.59	122.891
1660.84	123.361
1661.1	123.792
1661.35	124.182
1661.61	124.687
1661.86	125.153
1662.11	125.569
1662.37	125.886
1662.62	126.089
1662.87	126.182
1663.13	125.976
1663.38	125.718
1663.64	125.463
1663.89	125.198
1664.14	124.972
1664.4	124.785
1664.65	124.601
1664.9	124.488
1665.16	124.382
1665.41	124.307
1665.66	124.243
1665.92	124.209
1666.17	124.179
1666.42	124.18
1666.68	124.166
1666.93	124.171
1667.19	124.137
1667.44	124.14
1667.69	124.245
1667.94	124.35
1668.2	124.479
1668.45	124.61
1668.7	124.787
1668.96	124.917
1669.21	125.223
1669.46	125.23
1669.72	125.232
1669.97	125.22
1670.22	125.18
1670.48	125.149
1670.73	124.967
1670.98	124.832
1671.24	124.722
1671.49	124.489
1671.74	124.319
1672	124.176
1672.25	124.015
1672.5	123.885
1672.76	123.761
1673.01	123.639
1673.26	123.549
1673.51	123.438
1673.77	123.45
1674.02	123.411
1674.27	123.356
1674.53	123.328
1674.78	123.327
1675.03	123.452
1675.28	123.366
1675.54	123.313
1675.79	123.228
1676.04	123.156
1676.3	123.073
1676.55	122.982
1676.8	122.903
1677.05	122.796
1677.31	122.725
1677.56	122.63
1677.81	122.572
1678.06	122.493
1678.32	122.455
1678.57	122.247
1678.82	122.278
1679.08	122.289
1679.33	122.348
1679.58	122.42
1679.83	122.505
1680.09	123.002
1680.34	123.262
1680.59	123.444
1680.84	123.778
1681.09	123.9
1681.35	124.04
1681.6	124.158
1681.85	124.245
1682.11	124.325
1682.36	123.955
1682.61	123.984
1682.86	123.712
1683.11	123.899
1683.37	124.101
1683.62	124.279
1683.87	124.689
1684.12	124.918
1684.38	125.208
1684.63	125.485
1684.88	125.698
1685.13	125.82
1685.38	125.99
1685.64	126.002
1685.89	126.031
1686.14	125.837
1686.39	125.659
1686.65	125.426
1686.9	125.199
1687.15	124.914
1687.4	124.669
1687.65	124.387
1687.91	124.014
1688.16	123.669
1688.41	123.298
1688.66	122.961
1688.91	122.612
1689.16	122.28
1689.42	121.95
1689.67	121.678
1689.92	121.429
1690.17	121.437
1690.42	121.42
1690.68	121.574
1690.93	121.583
1691.18	121.971
1691.43	122.366
1691.68	122.822
1691.93	123.272
1692.19	123.793
1692.44	124.357
1692.69	124.764
1692.94	125.125
1693.19	125.451
1693.44	125.539
1693.7	125.681
1693.95	125.778
1694.2	125.839
1694.45	125.865
1694.7	125.861
1694.95	125.872
1695.2	125.885
1695.46	125.864
1695.71	125.866
1695.96	125.819
1696.21	125.81
1696.46	125.744
1696.71	125.719
1696.96	125.64
1697.22	125.612
1697.47	125.525
1697.72	125.486
1697.97	125.551
1698.22	125.521
1698.47	125.471
1698.72	125.434
1698.98	125.382
1699.23	125.35
1699.48	125.301
1699.73	125.341
1699.98	125.43
